1:2,3,4,5,6,8,9,28,64,72,73,78,79,81,82,228,229,:
2:1,3,4,5,8,9,28,64,72,73,77,78,79,80,82,225,226,228,229,230,234,:
3:1,2,4,5,6,8,64,73,79,229,:
4:1,2,3,5,8,60,61,63,64,65,66,72,73,74,75,77,78,79,81,82,83,84,85,86,:
5:1,2,3,4,6,7,8,9,10,11,28,29,229,446,447,:
6:1,3,5,7,8,9,10,225,443,446,447,:
7:5,6,8,9,10,28,29,86,87,89,447,533,:
8:1,2,3,4,5,6,7,9,10,28,29,73,78,79,81,82,86,89,228,229,:
9:1,2,5,6,7,8,10,11,12,13,28,29,30,225,226,228,229,446,447,448,:
10:5,6,7,8,9,11,12,13,14,15,17,28,29,30,31,33,89,91,228,229,447,:
11:5,9,10,12,13,14,15,16,17,18,28,29,30,31,32,33,34,35,226,228,229,230,:
12:9,10,11,13,14,15,16,17,18,19,26,27,28,29,30,31,32,33,34,35,36,446,447,448,449,450,451,452,457,:
13:9,10,11,12,14,15,16,17,18,28,29,30,31,32,33,34,35,91,230,369,385,:
14:10,11,12,13,15,16,17,28,30,31,32,33,34,35,230,272,273,274,275,278,366,367,368,369,:
15:10,11,12,13,14,16,17,18,19,27,28,29,30,31,32,33,34,35,36,333,366,369,378,379,384,385,:
16:11,12,13,14,15,17,18,19,26,27,31,32,33,34,35,330,331,333,365,366,367,368,369,378,379,384,385,:
17:10,11,12,13,14,15,16,18,19,20,21,26,27,29,30,31,32,33,34,35,36,367,369,379,385,449,:
18:11,12,13,15,16,17,19,20,21,22,24,25,26,27,29,33,34,35,36,378,379,385,448,449,450,:
19:12,15,16,17,18,20,21,22,26,27,29,33,35,36,38,378,379,380,384,385,448,450,:
20:17,18,19,21,22,23,24,26,27,36,37,38,376,377,378,379,450,475,476,477,:
21:17,18,19,20,22,23,24,25,26,27,35,36,37,38,39,376,379,450,:
22:18,19,20,21,23,24,25,26,27,37,38,39,372,376,411,412,450,473,475,:
23:20,21,22,24,25,27,37,38,372,374,375,410,411,412,475,:
24:18,20,21,22,23,25,26,27,37,38,39,372,410,411,412,:
25:18,21,22,23,24,26,27,35,37,39,365,411,412,450,491,493,:
26:12,16,17,18,19,20,21,22,24,25,27,34,35,39,365,366,367,369,449,450,453,:
27:12,15,16,17,18,19,20,21,22,23,24,25,26,33,34,35,36,38,39,379,449,450,:
28:1,2,5,7,8,9,10,11,12,13,14,15,29,30,31,33,78,79,87,89,91,228,229,230,:
29:5,7,8,9,10,11,12,13,15,17,18,19,28,30,31,33,36,89,91,385,447,:
30:9,10,11,12,13,14,15,17,28,29,31,32,33,35,225,226,227,228,229,230,273,452,457,458,:
31:10,11,12,13,14,15,16,17,28,29,30,32,33,34,35,89,91,92,230,369,385,:
32:11,12,13,14,15,16,17,30,31,33,34,35,274,275,276,277,278,316,366,367,368,369,:
33:10,11,12,13,14,15,16,17,18,19,27,28,29,30,31,32,34,35,36,91,333,369,378,379,380,384,385,386,:
34:11,12,13,14,15,16,17,18,26,27,31,32,33,35,330,333,365,366,367,368,369,379,385,:
35:11,12,13,14,15,16,17,18,19,21,25,26,27,30,31,32,33,34,365,366,367,369,449,451,453,457,458,:
36:12,15,17,18,19,20,21,27,29,33,378,379,380,384,385,386,448,536,:
37:20,21,22,23,24,25,38,372,373,374,406,410,411,412,475,:
38:19,20,21,22,23,24,27,37,375,475,476,480,:
39:21,22,24,25,26,27,363,364,365,411,412,491,493,:
40:41,42,43,44,45,46,49,50,104,106,107,:
41:40,42,43,44,45,49,103,104,105,106,107,:
42:40,41,43,44,45,46,47,48,49,50,51,104,107,:
43:40,41,42,44,45,46,47,48,49,50,51,52,54,58,59,103,104,:
44:40,41,42,43,45,46,47,48,49,50,51,52,58,59,97,98,100,101,103,104,107,:
45:40,41,42,43,44,46,47,48,49,50,104,107,:
46:40,42,43,44,45,47,48,49,104,558,:
47:42,43,44,45,46,48,49,50,58,559,:
48:42,43,44,45,46,47,:
49:40,41,42,43,44,45,46,47,50,51,52,53,54,55,58,59,:
50:40,42,43,44,45,47,49,51,52,53,54,58,:
51:42,43,44,49,50,52,53,54,55,56,57,58,59,60,101,:
52:43,44,49,50,51,53,54,55,57,58,59,60,61,62,101,174,175,:
53:49,50,51,52,54,55,57,58,59,60,61,62,172,173,174,175,176,177,:
54:43,49,50,51,52,53,55,56,57,58,59,:
55:49,51,52,53,54,56,57,:
56:51,54,55,57,:
57:51,52,53,54,55,56,101,:
58:43,44,47,49,50,51,52,53,54,59,60,61,62,63,64,84,85,97,101,102,142,175,:
59:43,44,49,51,52,53,54,58,60,61,62,84,85,95,97,100,101,102,104,142,:
60:4,51,52,53,58,59,61,62,63,64,65,73,82,84,85,142,174,175,176,:
61:4,52,53,58,59,60,62,63,64,65,66,67,68,72,73,82,85,141,142,172,175,176,:
62:52,53,58,59,60,61,63,64,65,66,67,72,73,82,85,102,140,141,142,:
63:4,58,60,61,62,64,65,66,67,68,69,70,71,72,73,82,142,172,175,176,:
64:1,2,3,4,58,60,61,62,63,65,66,68,69,70,72,73,82,172,174,175,176,:
65:4,60,61,62,63,64,66,67,68,69,70,71,72,73,74,172,:
66:4,61,62,63,64,65,67,68,69,71,72,73,74,75,77,79,80,81,82,142,:
67:61,62,63,65,66,68,71,72,73,74,75,77,80,140,142,157,163,:
68:61,63,64,65,66,67,69,70,71,72,73,:
69:63,64,65,66,68,70,71,172,176,245,:
70:63,64,65,68,69,71,243,245,:
71:63,65,66,67,68,69,70,72,163,:
72:1,2,4,61,62,63,64,65,66,67,68,71,73,74,75,76,77,78,79,80,81,82,142,:
73:1,2,3,4,8,60,61,62,63,64,65,66,67,68,72,74,75,77,78,79,80,81,82,85,:
74:4,65,66,67,72,73,75,76,77,78,79,80,81,82,83,136,:
75:4,66,67,72,73,74,76,77,78,79,80,81,82,83,84,85,86,87,89,135,136,140,141,142,:
76:72,74,75,77,78,81,82,83,86,87,88,89,129,130,135,136,137,140,141,:
77:2,4,66,67,72,73,74,75,76,78,79,80,81,82,89,:
78:1,2,4,8,28,72,73,74,75,76,77,79,80,81,82,89,91,228,229,230,:
79:1,2,3,4,8,28,66,72,73,74,75,77,78,80,81,82,228,229,230,234,:
80:2,66,67,72,73,74,75,77,78,79,:
81:1,4,8,66,72,73,74,75,76,77,78,79,82,83,84,85,86,87,89,95,96,136,141,142,:
82:1,2,4,8,60,61,62,63,64,66,72,73,74,75,76,77,78,79,81,83,84,85,86,87,89,95,142,:
83:4,74,75,76,81,82,84,85,86,87,88,89,95,96,97,102,123,136,141,:
84:4,58,59,60,75,81,82,83,85,86,87,95,96,97,98,99,100,101,102,123,141,142,:
85:4,58,59,60,61,62,73,75,81,82,83,84,86,95,96,97,98,100,101,102,141,142,:
86:4,7,8,75,76,81,82,83,84,85,87,88,89,90,91,95,96,:
87:7,28,75,76,81,82,83,84,86,88,89,90,91,92,117,:
88:76,83,86,87,89,90,91,92,93,94,116,117,122,128,129,:
89:7,8,10,28,29,31,75,76,77,78,81,82,83,86,87,88,90,91,92,93,:
90:86,87,88,89,91,92,93,94,117,133,386,:
91:10,13,28,29,31,33,78,86,87,88,89,90,92,93,94,384,385,386,:
92:31,87,88,89,90,91,93,94,153,384,385,386,:
93:88,89,90,91,92,94,152,153,154,155,333,384,385,386,:
94:88,90,91,92,93,152,153,154,155,333,383,384,385,386,:
95:59,81,82,83,84,85,86,96,97,98,99,100,101,102,103,104,120,123,141,:
96:81,83,84,85,86,95,97,98,99,100,101,102,119,120,121,122,123,128,:
97:44,58,59,83,84,85,95,96,98,99,100,101,102,103,104,105,120,123,:
98:44,84,85,95,96,97,99,100,101,103,104,105,106,108,120,:
99:84,95,96,97,98,100,103,104,105,108,112,113,115,119,120,123,:
100:44,59,84,85,95,96,97,98,99,101,102,103,104,:
101:44,51,52,57,58,59,84,85,95,96,97,98,100,102,141,142,:
102:58,59,62,83,84,85,95,96,97,100,101,137,140,141,142,:
103:41,43,44,95,97,98,99,100,104,105,106,107,108,:
104:40,41,42,43,44,45,46,59,95,97,98,99,100,103,105,106,107,108,:
105:41,97,98,99,103,104,106,107,108,109,:
106:40,41,98,103,104,105,107,108,109,:
107:40,41,42,44,45,103,104,105,106,108,:
108:98,99,103,104,105,106,107,109,:
109:105,106,108,:
110:111,112,113,114,115,116,117,118,119,120,:
111:110,112,113,114,115,116,117,118,119,:
112:99,110,111,113,114,115,116,117,118,119,120,121,:
113:99,110,111,112,114,115,116,117,118,119,120,121,122,123,124,127,:
114:110,111,112,113,115,116,117,119,120,121,122,124,127,:
115:99,110,111,112,113,114,116,117,118,119,120,:
116:88,110,111,112,113,114,115,117,118,119,:
117:87,88,90,110,111,112,113,114,115,116,118,119,120,:
118:110,111,112,113,115,116,117,:
119:96,99,110,111,112,113,114,115,116,117,120,121,122,123,124,125,126,127,128,:
120:95,96,97,98,99,110,112,113,114,115,117,119,121,122,123,124,125,126,127,:
121:96,112,113,114,119,120,122,123,124,125,126,127,128,129,134,:
122:88,96,113,114,119,120,121,123,124,125,126,127,128,129,130,131,132,133,134,:
123:83,84,95,96,97,99,113,119,120,121,122,124,125,126,128,129,130,131,134,135,136,:
124:113,114,119,120,121,122,123,125,126,127,128,134,:
125:119,120,121,122,123,124,126,127,128,131,:
126:119,120,121,122,123,124,125,127,128,129,130,131,134,:
127:113,114,119,120,121,122,124,125,126,:
128:88,96,119,121,122,123,124,125,126,129,130,131,132,133,134,135,136,:
129:76,88,121,122,123,126,128,130,131,132,133,134,135,136,137,:
130:76,122,123,126,128,129,131,132,133,134,135,136,137,138,140,141,:
131:122,123,125,126,128,129,130,132,134,135,136,137,138,:
132:122,128,129,130,131,133,134,135,136,:
133:90,122,128,129,130,132,134,150,:
134:121,122,123,124,126,128,129,130,131,132,133,:
135:75,76,123,128,129,130,131,132,136,137,138,139,140,141,142,:
136:74,75,76,81,83,123,128,129,130,131,132,135,137,138,139,140,141,142,:
137:76,102,129,130,131,135,136,138,139,140,141,142,:
138:130,131,135,136,137,139,140,141,:
139:135,136,137,138,140,157,:
140:62,67,75,76,102,130,135,136,137,138,139,141,142,:
141:61,62,75,76,81,83,84,85,95,101,102,130,135,136,137,138,140,142,:
142:58,59,60,61,62,63,66,67,72,75,81,82,84,85,101,102,135,136,137,140,141,:
143:144,145,146,147,148,149,:
144:143,145,146,148,:
145:143,144,146,147,148,149,150,:
146:143,144,145,147,148,149,:
147:143,145,146,148,149,:
148:143,144,145,146,147,149,150,151,:
149:143,145,146,147,148,150,151,152,:
150:133,145,148,149,151,152,153,154,155,:
151:148,149,150,152,153,154,155,:
152:93,94,149,150,151,153,154,155,:
153:92,93,94,150,151,152,154,155,:
154:93,94,150,151,152,153,155,:
155:93,94,150,151,152,153,154,:
156:157,158,159,160,161,162,163,:
157:67,139,156,158,159,161,162,163,:
158:156,157,159,160,161,162,163,164,166,179,:
159:156,157,158,160,161,162,165,166,178,179,:
160:156,158,159,161,162,165,166,168,178,179,180,183,184,:
161:156,157,158,159,160,162,163,164,187,:
162:156,157,158,159,160,161,163,164,185,186,187,:
163:67,71,156,157,158,161,162,164,186,187,:
164:158,161,162,163,185,186,187,:
165:159,160,166,167,168,169,170,171,178,179,:
166:158,159,160,165,167,168,170,178,179,:
167:165,166,168,169,170,171,172,178,179,180,:
168:160,165,166,167,169,170,171,178,179,180,181,183,:
169:165,167,168,170,171,178,179,180,181,182,:
170:165,166,167,168,169,171,172,173,178,179,:
171:165,167,168,169,170,172,173,174,:
172:53,61,63,64,65,69,167,170,171,173,174,175,176,177,:
173:53,170,171,172,174,175,176,177,204,:
174:52,53,60,64,171,172,173,175,176,177,202,204,:
175:52,53,58,60,61,63,64,172,173,174,176,177,204,:
176:53,60,61,63,64,69,172,173,174,175,177,204,:
177:53,172,173,174,175,176,202,203,204,:
178:159,160,165,166,167,168,169,170,179,180,181,182,183,184,:
179:158,159,160,165,166,167,168,169,170,178,180,181,183,184,:
180:160,167,168,169,178,179,181,182,183,184,185,:
181:168,169,178,179,180,182,183,184,:
182:169,178,180,181,183,:
183:160,168,178,179,180,181,182,184,185,186,190,:
184:160,178,179,180,181,183,185,186,187,188,189,190,:
185:162,164,180,183,184,186,187,188,189,190,191,192,193,:
186:162,163,164,183,184,185,187,188,189,190,191,192,193,194,:
187:161,162,163,164,184,185,186,188,189,190,192,193,194,:
188:184,185,186,187,189,190,191,192,193,194,237,:
189:184,185,186,187,188,190,191,192,193,194,:
190:183,184,185,186,187,188,189,191,192,194,:
191:185,186,188,189,190,192,193,194,237,245,:
192:185,186,187,188,189,190,191,193,194,236,237,245,:
193:185,186,187,188,189,191,192,194,235,236,237,:
194:186,187,188,189,190,191,192,193,235,236,237,245,:
195:196,197,198,199,200,201,:
196:195,197,198,200,201,202,:
197:195,196,198,199,200,201,202,:
198:195,196,197,199,200,201,:
199:195,197,198,200,:
200:195,196,197,198,199,201,202,203,204,:
201:195,196,197,198,200,202,203,204,559,:
202:174,177,196,197,200,201,203,204,:
203:177,200,201,202,204,:
204:173,174,175,176,177,200,201,202,203,:
205:206,207,208,209,210,211,214,215,434,:
206:205,207,208,209,210,214,:
207:205,206,208,209,210,211,212,213,214,215,216,434,436,437,:
208:205,206,207,209,210,211,212,214,215,216,217,219,223,224,437,:
209:205,206,207,208,210,211,212,214,215,216,217,219,224,242,248,249,253,255,:
210:205,206,207,208,209,211,212,213,214,215,438,:
211:205,207,208,209,210,212,213,214,215,438,439,:
212:207,208,209,210,211,213,214,215,436,437,438,439,441,443,:
213:207,210,211,212,439,:
214:205,206,207,208,209,210,211,212,215,216,217,218,219,220,223,224,437,467,:
215:205,207,208,209,210,211,212,214,216,217,218,219,223,224,434,436,437,441,443,467,:
216:207,208,209,214,215,217,218,219,220,221,222,223,224,225,242,:
217:208,209,214,215,216,218,219,220,221,223,224,225,226,227,443,452,456,:
218:214,215,216,217,219,220,223,224,225,226,227,443,444,445,446,447,451,452,453,454,456,457,458,459,460,:
219:208,209,214,215,216,217,218,220,221,222,223,224,456,467,:
220:214,216,217,218,219,221,222,223,456,458,:
221:216,217,219,220,222,251,252,253,262,265,:
222:216,219,220,221,456,509,:
223:208,214,215,216,217,218,219,220,224,225,226,227,228,229,242,452,:
224:208,209,214,215,216,217,218,219,223,225,226,227,228,239,241,242,:
225:2,6,9,30,216,217,218,223,224,226,227,228,229,230,447,452,:
226:2,9,11,30,217,218,223,224,225,227,228,229,230,231,233,234,239,272,273,452,457,458,:
227:30,217,218,223,224,225,226,228,229,230,231,232,233,234,239,269,270,272,273,274,452,456,457,458,:
228:1,2,8,9,10,11,28,30,78,79,223,224,225,226,227,229,230,231,232,233,234,239,273,:
229:1,2,3,5,8,9,10,11,28,30,78,79,223,225,226,227,228,230,231,233,234,239,:
230:2,11,13,14,28,30,31,78,79,225,226,227,228,229,231,232,233,234,235,272,273,278,:
231:226,227,228,229,230,232,233,234,235,236,238,239,269,270,272,273,277,278,283,285,:
232:227,228,230,231,233,234,235,269,270,272,273,274,275,277,278,279,282,283,284,285,288,:
233:226,227,228,229,230,231,232,234,235,236,237,238,239,269,273,:
234:2,79,226,227,228,229,230,231,232,233,235,236,237,238,239,240,:
235:193,194,230,231,232,233,234,236,237,238,239,240,269,285,:
236:192,193,194,231,233,234,235,237,238,239,240,241,243,245,259,261,262,:
237:188,191,192,193,194,233,234,235,236,238,239,240,243,245,258,259,261,262,:
238:231,233,234,235,236,237,239,240,241,242,243,244,245,246,247,262,:
239:224,226,227,228,229,231,233,234,235,236,237,238,240,241,242,243,245,246,262,:
240:234,235,236,237,238,239,241,242,243,244,245,246,247,248,259,262,:
241:224,236,238,239,240,242,243,244,245,246,247,248,249,251,262,:
242:209,216,223,224,238,239,240,241,243,244,246,247,248,249,251,262,:
243:70,236,237,238,239,240,241,242,244,245,246,247,:
244:238,240,241,242,243,245,246,247,:
245:69,70,191,192,194,236,237,238,239,240,241,243,244,:
246:238,239,240,241,242,243,244,247,248,249,250,251,252,259,262,:
247:238,240,241,242,243,244,246,248,249,250,251,259,262,:
248:209,240,241,242,246,247,249,250,251,252,253,254,262,:
249:209,241,242,246,247,248,250,251,252,253,254,:
250:246,247,248,249,251,252,253,254,:
251:221,241,242,246,247,248,249,250,252,253,254,255,256,262,263,:
252:221,246,248,249,250,251,253,254,255,256,257,:
253:209,221,248,249,250,251,252,254,255,256,257,:
254:248,249,250,251,252,253,255,256,257,:
255:209,251,252,253,254,256,257,:
256:251,252,253,254,255,257,:
257:252,253,254,255,256,:
258:237,259,260,261,262,263,264,267,268,:
259:236,237,240,246,247,258,260,261,262,263,267,:
260:258,259,261,262,263,264,265,266,267,268,269,294,:
261:236,237,258,259,260,262,263,264,265,266,267,268,269,270,271,294,:
262:221,236,237,238,239,240,241,242,246,247,248,251,258,259,260,261,263,264,265,267,268,269,:
263:251,258,259,260,261,262,264,265,266,267,268,:
264:258,260,261,262,263,265,266,267,268,:
265:221,260,261,262,263,264,266,267,268,:
266:260,261,263,264,265,267,268,:
267:258,259,260,261,262,263,264,265,266,268,269,270,271,272,273,288,293,294,:
268:258,260,261,262,263,264,265,266,267,269,270,271,272,288,292,293,294,295,:
269:227,231,232,233,235,260,261,262,267,268,270,271,272,273,274,278,288,294,:
270:227,231,232,261,267,268,269,271,272,273,274,275,277,278,287,288,294,297,458,:
271:261,267,268,269,270,272,273,274,275,276,277,278,287,288,289,292,293,294,296,297,:
272:14,226,227,230,231,232,267,268,269,270,271,273,274,275,276,277,278,288,457,458,:
273:14,30,226,227,228,230,231,232,233,267,269,270,271,272,274,275,277,278,457,458,:
274:14,32,227,232,269,270,271,272,273,275,276,277,278,279,288,297,304,366,367,368,457,458,:
275:14,32,232,270,271,272,273,274,276,277,278,279,280,281,282,287,288,296,297,309,316,366,367,368,:
276:32,271,272,274,275,277,278,279,280,281,287,288,290,296,297,298,299,301,302,308,309,313,314,315,316,366,367,368,369,:
277:32,231,232,270,271,272,273,274,275,276,278,279,280,281,282,283,287,288,297,309,:
278:14,32,230,231,232,269,270,271,272,273,274,275,276,277,279,280,282,283,284,287,288,:
279:232,274,275,276,277,278,280,281,282,283,284,287,288,289,297,309,316,:
280:275,276,277,278,279,281,282,283,287,288,289,290,291,292,296,297,308,309,:
281:275,276,277,279,280,282,287,288,289,290,291,296,297,308,309,310,311,313,:
282:232,275,277,278,279,280,281,283,284,285,286,287,288,:
283:231,232,277,278,279,280,282,284,285,286,:
284:232,278,279,282,283,285,286,:
285:231,232,235,282,283,284,286,:
286:282,283,284,285,:
287:270,271,275,276,277,278,279,280,281,282,288,289,290,291,292,293,294,295,296,297,309,:
288:232,267,268,269,270,271,272,274,275,276,277,278,279,280,281,282,287,289,290,292,293,294,295,296,297,:
289:271,279,280,281,287,288,290,291,292,293,294,295,296,297,298,309,:
290:276,280,281,287,288,289,291,292,293,296,297,298,299,300,301,303,308,309,:
291:280,281,287,289,290,292,296,297,298,299,300,308,309,:
292:268,271,280,287,288,289,290,291,293,294,295,296,297,:
293:267,268,271,287,288,289,290,292,294,295,:
294:260,261,267,268,269,270,271,287,288,289,292,293,295,:
295:268,287,288,289,292,293,294,:
296:271,275,276,280,281,287,288,289,290,291,292,297,298,299,300,301,302,303,308,309,:
297:270,271,274,275,276,277,279,280,281,287,288,289,290,291,292,296,298,299,301,302,303,304,308,309,:
298:276,289,290,291,296,297,299,300,301,302,303,304,308,309,310,:
299:276,290,291,296,297,298,300,301,302,308,309,310,311,312,313,:
300:290,291,296,298,299,301,308,309,310,311,312,:
301:276,290,296,297,298,299,300,302,303,304,305,306,308,309,:
302:276,296,297,298,299,301,303,304,305,306,307,:
303:290,296,297,298,301,302,304,305,306,307,:
304:274,297,298,301,302,303,305,306,307,493,:
305:301,302,303,304,306,307,:
306:301,302,303,304,305,307,458,:
307:302,303,304,305,306,:
308:276,280,281,290,291,296,297,298,299,300,301,309,310,311,312,313,314,315,316,:
309:275,276,277,279,280,281,287,289,290,291,296,297,298,299,300,301,308,310,311,313,314,315,316,368,:
310:281,298,299,300,308,309,311,312,313,314,315,316,:
311:281,299,300,308,309,310,312,313,314,:
312:299,300,308,310,311,313,:
313:276,281,299,308,309,310,311,312,314,315,316,368,:
314:276,308,309,310,311,313,315,316,326,329,366,368,:
315:276,308,309,310,313,314,316,324,326,329,330,364,365,366,367,368,369,:
316:32,275,276,279,308,309,310,313,314,315,329,330,366,368,369,:
317:318,319,320,321,322,323,324,325,335,352,:
318:317,319,320,322,323,324,325,:
319:317,318,320,321,322,323,324,325,326,335,352,358,:
320:317,318,319,321,322,324,325,326,327,328,329,334,335,351,352,357,358,:
321:317,319,320,322,324,325,326,327,328,334,335,351,352,353,354,356,357,358,359,362,:
322:317,318,319,320,321,323,324,325,:
323:317,318,319,322,:
324:315,317,318,319,320,321,322,325,326,327,328,329,330,334,335,352,358,:
325:317,318,319,320,321,322,324,326,327,329,334,335,:
326:314,315,319,320,321,324,325,327,328,329,330,331,332,334,335,336,358,:
327:320,321,324,325,326,328,329,330,331,332,334,335,336,337,338,339,351,352,357,358,371,:
328:320,321,324,326,327,329,330,331,332,334,335,336,337,338,351,352,357,358,359,360,362,370,371,375,376,:
329:314,315,316,320,324,325,326,327,328,330,331,332,333,334,335,:
330:16,34,315,316,324,326,327,328,329,331,332,333,369,:
331:16,326,327,328,329,330,332,333,378,379,380,384,385,:
332:326,327,328,329,330,331,333,334,335,378,379,380,:
333:15,16,33,34,93,94,329,330,331,332,369,377,378,379,380,381,384,385,386,:
334:320,321,324,325,326,327,328,329,332,335,336,337,338,339,340,351,352,358,371,:
335:317,319,320,321,324,325,326,327,328,329,332,334,336,337,339,351,352,358,:
336:326,327,328,334,335,337,338,339,340,341,351,352,353,358,371,:
337:327,328,334,335,336,338,339,340,351,352,353,354,355,356,357,358,370,371,388,:
338:327,328,334,336,337,339,340,351,352,353,354,355,357,358,370,371,372,373,375,387,388,392,393,394,:
339:327,334,335,336,337,338,340,341,342,346,351,352,:
340:334,336,337,338,339,341,342,343,344,345,346,:
341:336,339,340,342,343,344,345,346,347,348,349,:
342:339,340,341,343,344,345,346,347,348,349,350,:
343:340,341,342,344,345,346,348,349,350,:
344:340,341,342,343,345,346,347,348,349,350,:
345:340,341,342,343,344,346,347,348,349,350,394,:
346:339,340,341,342,343,344,345,347,348,350,393,394,:
347:341,342,344,345,346,348,349,350,394,:
348:341,342,343,344,345,346,347,349,350,:
349:341,342,343,344,345,347,348,350,:
350:342,343,344,345,346,347,348,349,:
351:320,321,327,328,334,335,336,337,338,339,352,353,354,355,356,357,358,371,388,:
352:317,319,320,321,324,327,328,334,335,336,337,338,339,351,353,354,356,357,358,:
353:321,336,337,338,351,352,354,355,356,357,358,359,371,388,:
354:321,337,338,351,352,353,355,356,357,358,359,360,361,362,370,371,387,388,397,:
355:337,338,351,353,354,356,357,358,359,360,361,370,371,373,387,388,389,390,392,393,396,397,398,401,:
356:321,337,351,352,353,354,355,357,358,:
357:320,321,327,328,337,338,351,352,353,354,355,356,358,359,360,361,362,363,370,371,388,397,:
358:319,320,321,324,326,327,328,334,335,336,337,338,351,352,353,354,355,356,357,359,360,362,370,371,:
359:321,328,353,354,355,357,358,360,361,362,363,364,370,371,372,388,397,:
360:328,354,355,357,358,359,361,362,363,370,371,372,373,374,375,387,388,396,397,412,:
361:354,355,357,359,360,362,363,370,371,372,373,374,387,388,396,397,398,399,401,405,406,411,412,:
362:321,328,354,357,358,359,360,361,363,364,365,370,371,:
363:39,357,359,360,361,362,364,365,366,370,430,432,:
364:39,315,359,362,363,365,366,367,368,369,432,:
365:16,25,26,34,35,39,315,362,363,364,366,367,368,369,:
366:14,15,16,26,32,34,35,274,275,276,314,315,316,363,364,365,367,368,369,:
367:14,16,17,26,32,34,35,274,275,276,315,364,365,366,368,369,:
368:14,16,32,34,274,275,276,309,313,314,315,316,364,365,366,367,369,:
369:13,14,15,16,17,26,31,32,33,34,35,276,315,316,330,333,364,365,366,367,368,:
370:328,337,338,354,355,357,358,359,360,361,362,363,371,372,373,374,375,376,387,388,397,:
371:327,328,334,336,337,338,351,353,354,355,357,358,359,360,361,362,370,372,373,375,376,387,388,:
372:22,23,24,37,338,359,360,361,370,371,373,374,375,376,377,387,388,389,397,406,:
373:37,338,355,360,361,370,371,372,374,375,376,387,388,389,390,391,392,396,397,405,406,:
374:23,37,360,361,370,372,373,375,387,388,389,390,391,396,397,405,406,407,410,411,412,414,420,:
375:23,38,328,338,360,370,371,372,373,374,376,377,378,387,388,:
376:20,21,22,328,370,371,372,373,375,377,378,379,380,382,:
377:20,333,372,375,376,378,379,380,381,382,383,384,385,:
378:15,16,18,19,20,33,36,331,332,333,375,376,377,379,380,381,382,383,384,385,386,:
379:15,16,17,18,19,20,21,27,33,34,36,331,332,333,376,377,378,380,381,382,384,385,386,:
380:19,33,36,331,332,333,376,377,378,379,381,382,383,384,385,386,:
381:333,377,378,379,380,382,383,384,385,386,:
382:376,377,378,379,380,381,383,384,386,:
383:94,377,378,380,381,382,384,385,386,:
384:15,16,19,33,36,91,92,93,94,331,333,377,378,379,380,381,382,383,385,386,:
385:13,15,16,17,18,19,29,31,33,34,36,91,92,93,94,331,333,377,378,379,380,381,383,384,386,:
386:33,36,90,91,92,93,94,333,378,379,380,381,382,383,384,385,:
387:338,354,355,360,361,370,371,372,373,374,375,388,389,390,391,392,393,394,395,396,397,406,:
388:337,338,351,353,354,355,357,359,360,361,370,371,372,373,374,375,387,389,390,392,393,394,396,397,:
389:355,372,373,374,387,388,390,391,392,393,394,395,396,397,398,406,:
390:355,373,374,387,388,389,391,392,393,395,396,397,398,399,401,405,406,413,414,:
391:373,374,387,389,390,392,395,396,397,398,399,405,406,413,414,415,416,418,:
392:338,355,373,387,388,389,390,391,393,394,395,396,397,:
393:338,346,355,387,388,389,390,392,394,395,:
394:338,345,346,347,387,388,389,392,393,395,:
395:387,389,390,391,392,393,394,396,:
396:355,360,361,373,374,387,388,389,390,391,392,395,397,398,399,400,401,402,403,405,406,414,:
397:354,355,357,359,360,361,370,372,373,374,387,388,389,390,391,392,396,398,399,401,402,403,405,406,:
398:355,361,389,390,391,396,397,399,400,401,402,403,404,405,406,407,414,:
399:361,390,391,396,397,398,400,401,402,405,406,407,408,410,411,412,413,414,:
400:396,398,399,401,402,405,406,407,408,413,414,:
401:355,361,390,396,397,398,399,400,402,403,404,405,406,:
402:396,397,398,399,400,401,403,404,:
403:396,397,398,401,402,404,:
404:398,401,402,403,426,427,:
405:361,373,374,390,391,396,397,398,399,400,401,406,407,408,409,410,411,412,413,414,:
406:37,361,372,373,374,387,389,390,391,396,397,398,399,400,401,405,407,408,410,411,412,413,414,420,:
407:374,398,399,400,405,406,408,409,410,411,412,413,414,415,420,:
408:399,400,405,406,407,409,410,411,413,414,415,416,418,419,420,:
409:405,407,408,410,413,414,415,416,418,419,420,:
410:23,24,37,374,399,405,406,407,408,409,411,412,413,414,420,472,:
411:22,23,24,25,37,39,361,374,399,405,406,407,408,410,412,471,472,487,:
412:22,23,24,25,37,39,360,361,374,399,405,406,407,410,411,:
413:390,391,399,400,405,406,407,408,409,410,414,415,416,417,418,419,420,:
414:374,390,391,396,398,399,400,405,406,407,408,409,410,413,415,416,417,418,419,420,:
415:391,407,408,409,413,414,416,417,418,419,420,:
416:391,408,409,413,414,415,417,418,419,:
417:413,414,415,416,418,:
418:391,408,409,413,414,415,416,417,419,420,:
419:408,409,413,414,415,416,418,420,:
420:374,406,407,408,409,410,413,414,415,418,419,:
421:422,423,424,425,426,427,:
422:421,423,424,426,:
423:421,422,424,425,426,427,428,429,:
424:421,422,423,425,426,427,428,429,:
425:421,423,424,426,427,428,429,:
426:404,421,422,423,424,425,427,428,429,430,431,:
427:404,421,423,424,425,426,428,429,430,431,432,:
428:423,424,425,426,427,429,430,431,432,:
429:423,424,425,426,427,428,430,431,432,:
430:363,426,427,428,429,431,432,:
431:426,427,428,429,430,432,:
432:363,364,427,428,429,430,431,:
433:434,435,436,437,438,439,440,441,442,465,:
434:205,207,215,433,435,436,437,438,440,441,465,467,:
435:433,434,436,437,438,439,440,441,442,443,524,525,:
436:207,212,215,433,434,435,437,438,439,440,441,442,443,444,445,465,466,524,525,:
437:207,208,212,214,215,433,434,435,436,438,441,442,443,444,445,464,465,466,467,:
438:210,211,212,433,434,435,436,437,439,440,441,442,:
439:211,212,213,433,435,436,438,440,441,442,524,560,:
440:433,434,435,436,438,439,:
441:212,215,433,434,435,436,437,438,439,442,443,444,445,446,447,466,522,523,524,525,:
442:433,435,436,437,438,439,441,443,444,445,446,522,523,524,525,528,530,:
443:6,212,215,217,218,435,436,437,441,442,444,445,446,447,448,452,460,466,524,:
444:218,436,437,441,442,443,445,446,447,448,449,451,452,459,460,465,466,525,:
445:218,436,437,441,442,443,444,446,447,448,449,450,451,452,459,460,461,464,465,466,467,469,525,:
446:5,6,9,12,218,441,442,443,444,445,447,448,449,450,451,452,460,533,:
447:5,6,7,9,10,12,29,218,225,441,443,444,445,446,448,449,451,452,533,:
448:9,12,18,19,36,443,444,445,446,447,449,450,451,452,453,460,477,533,:
449:12,17,18,26,27,35,444,445,446,447,448,450,451,452,453,454,456,459,460,469,:
450:12,18,19,20,21,22,25,26,27,445,446,448,449,451,452,453,454,455,459,460,468,469,473,474,475,477,:
451:12,35,218,444,445,446,447,448,449,450,452,453,454,455,456,457,458,459,460,469,:
452:12,30,217,218,223,225,226,227,443,444,445,446,447,448,449,450,451,453,454,456,457,458,459,460,:
453:26,35,218,448,449,450,451,452,454,455,456,457,458,459,460,461,469,:
454:218,449,450,451,452,453,455,456,457,459,460,461,462,464,466,468,469,486,:
455:450,451,453,454,456,459,460,461,462,468,469,485,486,490,491,493,509,:
456:217,218,219,220,222,227,449,451,452,453,454,455,457,458,459,460,:
457:12,30,35,218,226,227,272,273,274,451,452,453,454,456,458,:
458:30,35,218,220,226,227,270,272,273,274,306,451,452,453,456,457,:
459:218,444,445,449,450,451,452,453,454,455,456,460,461,462,463,464,465,466,467,468,469,486,:
460:218,443,444,445,446,448,449,450,451,452,453,454,455,456,459,461,462,464,465,466,467,468,469,:
461:445,453,454,455,459,460,462,463,464,465,466,467,468,469,470,486,:
462:454,455,459,460,461,463,464,465,466,467,468,469,470,471,473,485,486,:
463:459,461,462,464,465,466,468,469,470,471,485,486,:
464:437,445,454,459,460,461,462,463,465,466,467,468,469,:
465:433,434,436,437,444,445,459,460,461,462,463,464,466,467,468,469,525,526,:
466:436,437,441,443,444,445,454,459,460,461,462,463,464,465,467,468,469,525,526,:
467:214,215,219,434,437,445,459,460,461,462,464,465,466,:
468:450,454,455,459,460,461,462,463,464,465,466,469,470,471,472,473,474,485,486,:
469:445,449,450,451,453,454,455,459,460,461,462,463,464,465,466,468,470,471,473,474,485,486,:
470:461,462,463,468,469,471,472,473,474,475,485,486,487,:
471:411,462,463,468,469,470,472,473,474,485,486,487,488,489,490,494,:
472:410,411,468,470,471,473,485,486,487,488,489,494,500,:
473:22,450,462,468,469,470,471,472,474,475,476,485,486,:
474:450,468,469,470,471,473,475,476,477,478,480,:
475:20,22,23,37,38,450,470,473,474,476,477,478,479,480,481,482,483,:
476:20,38,473,474,475,477,478,479,480,481,482,483,484,536,:
477:20,448,450,474,475,476,478,479,480,482,483,484,529,534,535,536,:
478:474,475,476,477,479,480,481,482,483,484,516,517,535,536,:
479:475,476,477,478,480,481,482,483,484,516,517,:
480:38,474,475,476,477,478,479,481,482,484,517,:
481:475,476,478,479,480,482,483,484,516,517,518,519,:
482:475,476,477,478,479,480,481,483,484,515,516,517,518,529,534,535,536,:
483:475,476,477,478,479,481,482,484,515,516,517,529,533,534,535,536,:
484:476,477,478,479,480,481,482,483,515,516,517,518,519,520,534,535,536,546,:
485:455,462,463,468,469,470,471,472,473,486,487,488,489,490,491,492,494,500,:
486:454,455,459,461,462,463,468,469,470,471,472,473,485,487,488,489,490,491,:
487:411,470,471,472,485,486,488,489,490,491,492,493,494,495,500,502,:
488:471,472,485,486,487,489,490,491,492,494,495,496,497,498,499,500,501,502,:
489:471,472,485,486,487,488,490,492,494,495,496,497,500,501,502,503,504,506,:
490:455,471,485,486,487,488,489,491,492,493,494,500,502,:
491:25,39,455,485,486,487,488,490,492,493,:
492:485,487,488,489,490,491,493,494,500,502,:
493:25,39,304,455,487,490,491,492,:
494:471,472,485,487,488,489,490,492,495,496,497,498,499,500,502,:
495:487,488,489,494,496,497,498,499,500,502,:
496:488,489,494,495,497,498,499,500,501,502,:
497:488,489,494,495,496,498,501,502,504,:
498:488,494,495,496,497,499,500,:
499:488,494,495,496,498,500,:
500:472,485,487,488,489,490,492,494,495,496,498,499,:
501:488,489,496,497,502,503,504,505,506,507,508,:
502:487,488,489,490,492,494,495,496,497,501,503,504,506,507,:
503:489,501,502,504,505,506,507,508,509,:
504:489,497,501,502,503,505,506,507,508,:
505:501,503,504,506,508,:
506:489,501,502,503,504,505,507,508,509,:
507:501,502,503,504,506,508,509,:
508:501,503,504,505,506,507,509,:
509:222,455,503,506,507,508,:
510:511,512,513,514,515,516,517,521,:
511:510,512,513,514,515,516,517,518,520,:
512:510,511,513,514,515,516,517,518,520,521,522,527,529,538,:
513:510,511,512,514,515,516,521,522,523,525,526,527,528,529,535,537,538,548,:
514:510,511,512,513,515,521,522,523,524,527,528,529,531,535,537,538,539,540,542,547,548,549,552,:
515:482,483,484,510,511,512,513,514,516,517,518,519,520,521,527,529,535,538,543,544,546,:
516:478,479,481,482,483,484,510,511,512,513,515,517,518,519,520,546,:
517:478,479,480,481,482,483,484,510,511,512,515,516,518,519,520,:
518:481,482,484,511,512,515,516,517,519,520,544,545,546,:
519:481,484,515,516,517,518,520,546,:
520:484,511,512,515,516,517,518,519,543,544,545,546,:
521:510,512,513,514,515,522,523,524,525,526,527,528,529,538,:
522:441,442,512,513,514,521,523,524,525,526,527,528,529,530,538,548,:
523:441,442,513,514,521,522,524,525,526,527,528,529,530,531,533,535,537,538,547,548,:
524:435,436,439,441,442,443,514,521,522,523,525,528,529,530,531,537,538,547,548,552,554,:
525:435,436,441,442,444,445,465,466,513,521,522,523,524,526,527,528,529,:
526:465,466,513,521,522,523,525,527,529,:
527:512,513,514,515,521,522,523,525,526,528,529,:
528:442,513,514,521,522,523,524,525,527,529,530,531,532,533,534,535,536,537,538,548,:
529:477,482,483,512,513,514,515,521,522,523,524,525,526,527,528,530,531,533,534,535,536,537,538,548,:
530:442,522,523,524,528,529,531,532,533,534,535,536,537,538,539,548,:
531:514,523,524,528,529,530,532,533,534,535,537,538,539,540,542,543,547,548,:
532:528,530,531,533,534,537,538,539,540,542,543,548,:
533:7,446,447,448,483,523,528,529,530,531,532,534,535,536,537,538,:
534:477,482,483,484,528,529,530,531,532,533,535,536,537,538,:
535:477,478,482,483,484,513,514,515,523,528,529,530,531,533,534,536,537,538,543,546,:
536:36,476,477,478,482,483,484,528,529,530,533,534,535,:
537:513,514,523,524,528,529,530,531,532,533,534,535,538,539,540,541,542,543,547,548,:
538:512,513,514,515,521,522,523,524,528,529,530,531,532,533,534,535,537,539,540,542,543,547,548,:
539:514,530,531,532,537,538,540,541,542,543,544,547,548,549,:
540:514,531,532,537,538,539,541,542,543,547,548,549,550,551,552,553,554,:
541:537,539,540,542,547,548,549,550,551,553,554,:
542:514,531,532,537,538,539,540,541,543,544,545,546,547,548,:
543:515,520,531,532,535,537,538,539,540,542,544,545,546,:
544:515,518,520,539,542,543,545,546,:
545:518,520,542,543,544,546,:
546:484,515,516,518,519,520,535,542,543,544,545,:
547:514,523,524,531,537,538,539,540,541,542,548,549,550,551,552,553,554,:
548:513,514,522,523,524,528,529,530,531,532,537,538,539,540,541,542,547,549,550,552,553,554,:
549:514,539,540,541,547,548,550,551,552,553,554,555,:
550:540,541,547,548,549,551,552,553,554,555,556,557,558,:
551:540,541,547,549,550,552,553,554,555,556,557,:
552:514,524,540,547,548,549,550,551,553,554,:
553:540,541,547,548,549,550,551,552,554,555,556,557,558,559,560,:
554:524,540,541,547,548,549,550,551,552,553,555,556,558,560,:
555:549,550,551,553,554,556,557,558,559,560,:
556:550,551,553,554,555,557,558,559,560,:
557:550,551,553,555,556,558,559,:
558:46,550,553,554,555,556,557,559,560,:
559:47,201,553,555,556,557,558,560,:
560:439,553,554,555,556,558,559,:
