17.645:23.921:8.139:N
17.679:24.772:7.542:H
17.880:24.065:9.558:C
16.521:24.523:10.105:C
16.085:25.654:9.856:O
18.964:25.132:9.796:C
19.091:25.545:11.252:C
18.771:24.765:12.173:O
19.539:26.680:11.484:O
15.813:23.605:10.756:N
16.203:22.646:10.853:H
14.505:23.896:11.341:C
14.792:24.395:12.754:C
14.757:23.621:13.704:O
13.667:22.611:11.408:C
12.152:22.711:11.170:C
11.470:21.466:11.732:C
11.577:23.965:11.794:C
15.056:25.688:12.893:N
15.019:26.317:12.065:H
15.397:26.228:14.197:C
14.301:26.543:15.194:C
13.133:26.708:14.831:O
14.700:26.675:16.457:N
15.708:26.546:16.679:H
13.780:26.993:17.541:C
13.122:28.354:17.311:C
11.917:28.506:17.535:O
14.510:27.037:18.903:C
15.158:25.782:19.142:O
15.624:25.814:20.015:H
13.525:27.315:20.033:C
13.914:29.328:16.860:N
14.915:29.115:16.677:H
13.428:30.682:16.614:C
13.595:31.138:15.152:C
12.855:32.004:14.675:O
14.123:31.685:17.558:C
15.543:31.650:17.334:O
15.882:30.737:17.514:H
13.874:31.314:19.020:C
14.566:30.559:14.447:N
15.159:29.841:14.910:H
14.833:30.893:13.043:C
15.173:29.635:12.271:C
15.729:28.690:12.834:O
16.010:31.869:12.911:C
15.715:33.276:13.362:C
15.219:34.222:12.473:C
15.945:33.666:14.676:C
14.963:35.515:12.880:C
15.697:34.950:15.094:C
15.210:35.871:14.199:C
15.007:37.172:14.615:O
14.656:37.708:13.860:H
14.804:29.607:10.994:N
14.290:30.419:10.597:H
15.101:28.472:10.140:C
15.917:28.979:8.948:C
15.901:30.179:8.643:O
13.811:27.775:9.699:C
13.151:27.196:10.815:O
12.927:27.905:11.468:H
16.643:28.081:8.290:N
16.605:27.082:8.577:H
17.494:28.477:7.169:C
17.544:27.368:6.132:C
17.548:26.191:6.480:O
18.915:28.793:7.701:C
20.133:29.366:6.475:S
17.606:34.082:6.864:N
17.452:35.107:6.951:H
16.975:33.193:7.833:C
15.582:33.783:8.064:C
15.393:35.001:7.975:O
17.740:33.121:9.177:C
17.791:34.420:9.784:O
16.870:34.742:9.950:H
19.160:32.591:8.968:C
14.590:32.926:8.272:N
14.777:31.903:8.264:H
13.242:33.416:8.511:C
12.753:32.880:9.847:C
13.048:31.733:10.212:O
12.261:33.058:7.358:C
11.472:31.921:7.714:O
10.951:32.125:8.531:H
13.011:32.761:6.075:C
12.039:33.716:10.616:N
11.508:33.342:11.928:C
10.666:32.069:11.875:C
9.994:31.797:10.873:O
10.640:34.550:12.293:C
11.332:35.691:11.617:C
11.686:35.108:10.277:C
10.756:31.266:12.931:N
11.406:31.518:13.703:H
9.967:30.036:13.040:C
8.638:30.422:13.717:C
8.292:29.922:14.792:O
10.716:28.992:13.871:C
11.809:28.473:13.147:O
12.280:27.801:13.700:H
5.950:37.183:12.494:N
6.509:36.767:11.722:H
6.634:37.803:13.623:C
6.394:39.305:13.714:C
6.276:39.855:14.807:O
8.140:37.529:13.573:C
8.809:37.747:14.915:C
10.306:37.831:14.815:C
10.890:38.224:16.161:C
12.334:38.575:16.059:N
12.864:37.755:15.700:H
12.449:39.377:15.407:H
12.693:38.837:16.999:H
8.014:28.549:19.091:N
8.657:29.079:18.469:H
8.585:27.533:19.982:C
8.030:26.134:19.796:C
8.107:25.315:20.718:O
8.426:27.919:21.457:C
9.603:28.713:21.991:C
10.479:29.116:21.192:O
9.642:28.942:23.226:O
9.254:23.742:18.285:N
9.478:24.715:17.996:H
10.334:22.779:18.439:C
10.438:22.301:19.891:C
10.966:21.217:20.159:O
11.660:23.395:17.974:C
12.780:22.387:17.783:C
13.906:23.045:17.037:C
15.075:22.100:16.809:C
16.147:22.838:16.096:N
15.783:23.179:15.183:H
16.452:23.647:16.674:H
16.954:22.203:15.933:H
9.932:23.099:20.829:N
9.514:24.011:20.556:H
9.957:22.709:22.239:C
8.843:21.695:22.549:C
8.957:20.898:23.473:O
9.831:23.930:23.154:C
10.963:24.968:23.033:C
10.959:25.900:24.241:C
11.929:27.000:24.196:N
11.641:27.878:23.719:H
13.156:26.955:24.723:C
13.584:25.853:25.314:N
12.965:25.019:25.369:H
14.539:25.820:25.724:H
13.909:28.050:24.768:N
13.544:28.948:24.392:H
14.863:28.008:25.179:H
22.328:18.416:14.270:N
21.665:18.244:15.053:H
22.782:19.777:14.013:C
24.294:19.954:14.133:C
24.911:20.525:13.231:O
22.016:20.780:14.883:C
20.563:20.924:14.453:C
19.659:21.537:15.504:C
20.094:21.790:16.643:O
18.484:21.753:15.187:O
26.930:26.214:20.311:N
26.826:25.589:21.136:H
25.725:26.709:19.644:C
24.873:27.595:20.552:C
24.318:27.126:21.546:O
24.907:25.508:19.150:C
23.825:25.892:18.136:C
23.680:27.086:17.813:O
23.126:24.982:17.643:O
24.822:28.884:20.240:N
25.355:29.228:19.416:H
24.037:29.830:21.024:C
23.100:30.594:20.090:C
23.511:31.560:19.435:O
24.937:30.799:21.786:C
24.230:31.694:22.804:C
23.488:30.864:23.832:C
25.256:32.579:23.488:C
21.848:30.140:20.023:N
21.571:29.321:20.600:H
20.866:30.768:19.160:C
19.923:31.736:19.853:C
20.319:32.446:20.781:O
18.669:31.764:19.395:N
18.400:31.134:18.612:H
17.671:32.653:19.964:C
17.205:32.346:21.374:C
16.968:33.257:22.150:O
17.055:31.076:21.712:N
17.259:30.327:21.020:H
16.607:30.726:23.045:C
17.103:29.400:23.594:C
16.614:28.943:24.627:O
18.083:28.789:22.933:N
18.462:29.234:22.073:H
18.646:27.510:23.375:C
20.181:27.572:23.283:C
20.736:28.155:22.339:O
18.149:26.326:22.500:C
18.651:25.001:23.051:C
16.646:26.327:22.421:C
20.850:26.988:24.273:N
20.314:26.538:25.042:H
22.308:26.954:24.321:C
22.793:25.507:24.367:C
22.608:24.815:25.362:O
22.813:27.718:25.553:C
24.316:27.699:25.719:C
25.162:27.795:24.612:C
24.884:27.579:26.988:C
26.544:27.766:24.766:C
26.268:27.549:27.152:C
27.098:27.643:26.042:C
18.564:29.539:27.554:N
18.636:28.723:26.913:H
19.567:30.588:27.466:C
19.738:30.865:25.979:C
20.022:29.941:25.214:O
20.888:30.130:28.097:C
21.936:31.219:28.360:C
22.662:31.591:27.083:C
21.293:32.462:28.969:C
19.534:32.117:25.570:N
19.274:32.850:26.261:H
19.672:32.464:24.171:C
19.666:33.961:23.963:C
19.659:34.717:24.927:O
19.665:34.390:22.706:N
19.666:33.696:21.931:H
19.662:35.809:22.391:C
18.492:36.591:22.963:C
18.625:37.777:23.264:O
17.342:35.936:23.100:N
17.288:34.941:22.802:H
16.147:36.579:23.660:C
16.384:37.048:25.091:C
15.857:38.083:25.514:O
14.962:35.621:23.610:C
14.605:35.219:22.194:C
13.484:34.204:22.123:C
13.576:33.129:22.775:O
12.513:34.482:21.389:O
17.213:36.309:25.824:N
17.635:35.457:25.403:H
17.548:36.660:27.204:C
18.364:37.948:27.223:C
18.213:38.772:28.129:O
18.353:35.539:27.864:C
17.605:34.214:27.905:C
17.562:33.502:26.881:O
17.091:33.859:28.979:O
19.211:38.140:26.212:N
19.277:37.426:25.458:H
20.050:39.338:26.144:C
19.174:40.536:25.830:C
19.384:41.620:26.374:O
21.174:39.197:25.098:C
22.046:37.978:25.295:C
22.222:37.425:26.559:C
22.624:37.341:24.205:C
22.952:36.245:26.734:C
23.354:36.162:24.364:C
23.517:35.610:25.630:C
18.190:40.326:24.957:N
18.093:39.383:24.530:H
17.241:41.372:24.577:C
16.472:41.857:25.795:C
16.322:43.052:25.998:O
16.243:40.835:23.558:C
16.885:40.484:22.247:C
17.844:41.163:21.856:O
16.424:39.535:21.594:O
15.365:46.644:20.582:N
14.432:46.513:21.023:H
16.549:46.145:21.272:C
17.237:45.014:20.532:C
18.458:44.958:20.489:O
16.204:45.707:22.688:C
15.809:47.101:23.741:S
16.455:44.131:19.927:N
15.423:44.247:19.991:H
16.992:43.002:19.175:C
17.772:43.533:17.956:C
18.865:43.049:17.631:O
15.828:42.093:18.743:C
16.206:40.697:18.260:C
16.503:40.611:16.760:C
16.126:41.531:15.998:O
17.102:39.597:16.330:O
17.245:44.580:17.329:N
16.354:44.985:17.681:H
17.882:45.175:16.161:C
19.167:45.918:16.552:C
20.193:45.811:15.872:O
16.910:46.123:15.451:C
17.214:46.291:13.963:C
16.450:47.443:13.323:C
16.626:47.485:11.870:N
15.826:47.174:11.282:H
17.731:47.890:11.239:C
18.799:48.292:11.922:N
18.781:48.294:12.962:H
19.652:48.605:11.416:H
17.771:47.885:9.910:N
16.944:47.567:9.366:H
18.630:48.200:9.414:H
19.093:46.685:17.636:N
18.188:46.755:18.143:H
20.241:47.431:18.136:C
21.333:46.433:18.507:C
22.501:46.637:18.182:O
19.852:48.249:19.360:C
20.936:45.336:19.146:N
19.924:45.219:19.354:H
21.863:44.288:19.568:C
22.690:43.784:18.380:C
23.889:43.572:18.496:O
21.090:43.130:20.203:C
21.963:42.007:20.709:C
21.149:40.789:21.130:C
20.443:40.152:19.940:C
19.638:38.974:20.353:N
20.262:38.264:20.786:H
18.919:39.272:21.043:H
19.171:38.565:19.519:H
22.042:43.621:17.233:N
21.025:43.835:17.192:H
22.717:43.151:16.030:C
23.728:44.170:15.503:C
24.822:43.804:15.072:O
21.687:42.802:14.955:C
20.794:41.638:15.338:C
19.923:41.192:14.186:C
19.260:39.931:14.502:N
19.470:39.493:15.422:H
18.408:39.301:13.701:C
18.100:39.821:12.527:N
18.524:40.723:12.230:H
17.433:39.329:11.899:H
17.851:38.162:14.089:N
18.081:37.762:15.021:H
17.184:37.669:13.462:H
23.357:45.445:15.563:N
22.416:45.664:15.947:H
24.195:46.555:15.121:C
25.451:46.625:15.992:C
26.540:46.920:15.509:O
23.416:47.887:15.242:C
22.237:47.828:14.424:O
21.740:48.680:14.502:H
24.281:49.085:14.817:C
25.279:46.318:17.272:N
24.321:46.068:17.589:H
26.347:46.310:18.259:C
27.409:45.219:18.014:C
28.440:45.182:18.684:O
25.746:46.159:19.657:C
25.740:47.356:20.611:C
25.638:48.665:19.880:C
24.609:47.200:21.601:C
27.161:44.313:17.076:N
26.262:44.335:16.554:H
28.153:43.288:16.780:C
29.132:43.789:15.715:C
30.087:43.107:15.364:O
27.493:41.982:16.334:C
26.870:41.348:17.432:O
26.179:41.948:17.809:H
28.898:45.000:15.223:N
28.078:45.535:15.573:H
29.752:45.606:14.208:C
30.116:47.029:14.599:C
31.195:47.508:14.259:O
29.048:45.614:12.852:C
28.766:44.291:12.427:O
28.178:43.851:13.091:H
26.014:47.489:26.751:N
26.399:48.109:26.010:H
25.346:46.246:26.371:C
26.057:45.039:27.007:C
25.406:44.105:27.494:O
25.292:46.092:24.843:C
24.804:44.732:24.380:C
23.457:44.391:24.460:C
25.704:43.774:23.912:C
23.022:43.121:24.089:C
25.273:42.504:23.539:C
23.932:42.177:23.629:C
28.339:28.185:16.202:N
28.433:28.117:17.236:H
27.017:27.992:15.604:C
26.005:28.867:16.342:C
26.153:29.125:17.542:O
26.553:26.526:15.705:C
25.405:26.280:14.769:C
27.680:25.584:15.395:C
24.996:29.344:15.617:N
24.939:29.119:14.603:H
23.972:30.177:16.229:C
24.215:31.664:16.107:C
25.334:32.139:16.289:O
23.144:32.406:15.845:N
22.216:31.943:15.765:H
23.232:33.842:15.668:C
23.876:34.616:16.791:C
24.493:35.654:16.552:O
23.744:34.131:18.019:N
23.222:33.244:18.169:H
24.325:34.830:19.162:C
25.861:34.757:19.276:C
26.475:35.560:19.990:O
23.677:34.344:20.456:C
22.331:34.762:20.528:O
21.930:34.437:21.373:H
26.484:33.817:18.566:N
25.933:33.170:17.967:H
27.932:33.693:18.625:C
28.633:34.789:17.813:C
29.859:34.783:17.694:O
28.425:32.287:18.213:C
28.121:32.041:16.841:O
27.142:32.094:16.707:H
27.783:31.222:19.071:C
27.852:35.738:17.281:N
26.823:35.673:17.414:H
28.395:36.863:16.520:C
28.805:37.971:17.471:C
29.400:38.963:17.060:O
27.366:37.448:15.546:C
26.951:36.563:14.395:C
26.132:37.383:13.386:C
25.419:36.547:12.421:N
24.905:35.719:12.784:H
25.382:36.773:11.109:C
26.020:37.821:10.598:N
26.548:38.464:11.223:H
25.992:37.998:9.574:H
24.713:35.949:10.310:N
24.217:35.126:10.709:H
24.685:36.127:9.286:H
28.433:37.837:18.735:N
27.895:36.996:19.026:H
28.767:38.850:19.719:C
30.252:38.749:20.054:C
30.728:37.690:20.478:O
27.884:38.689:20.984:C
26.410:38.935:20.617:C
28.307:39.668:22.084:C
25.424:38.618:21.734:C
31.002:39.855:19.860:N
32.448:39.983:20.114:C
32.885:39.461:21.483:C
33.792:38.635:21.580:O
32.671:41.488:20.009:C
31.715:41.880:18.954:C
30.458:41.135:19.372:C
31.482:37.348:23.480:N
30.819:37.868:22.870:H
31.340:35.909:23.642:C
32.459:35.218:22.889:C
32.937:34.170:23.311:O
29.942:35.391:23.165:C
28.838:35.961:24.055:C
29.869:33.874:23.252:C
27.472:35.364:23.796:C
28.706:32.274:8.390:N
28.627:32.561:7.394:H
27.782:32.855:9.379:C
27.274:31.722:10.256:C
26.744:30.741:9.751:O
26.600:33.545:8.694:C
26.929:34.944:8.223:C
27.603:35.699:8.922:O
26.424:35.314:7.056:N
26.592:36.276:6.698:H
25.859:34.643:6.497:H
27.456:31.836:11.581:N
27.036:30.825:12.557:C
25.562:30.413:12.486:C
25.210:29.290:12.843:O
27.369:31.489:13.898:C
28.470:32.419:13.573:C
28.006:33.012:12.268:C
24.697:31.336:12.075:N
25.046:32.284:11.827:H
23.264:31.051:11.963:C
22.910:30.344:10.663:C
21.789:29.870:10.493:O
22.441:32.335:12.109:C
22.990:33.487:11.298:C
23.885:33.302:10.450:O
22.552:34.616:11.537:O
23.885:30.249:9.764:N
24.816:30.657:9.983:H
23.687:29.590:8.482:C
24.505:28.305:8.375:C
24.332:27.539:7.428:O
24.062:30.540:7.344:C
23.378:31.903:7.437:C
23.821:32.878:6.366:C
24.353:32.451:5.325:O
23.638:34.097:6.550:O
25.337:28.041:9.382:N
25.360:28.695:10.190:H
26.221:26.872:9.405:C
25.532:25.526:9.293:C
25.956:24.671:8.509:O
27.098:26.903:10.653:C
24.491:25.322:10.097:N
24.200:26.080:10.747:H
23.744:24.067:10.095:C
23.082:23.826:8.731:C
23.187:22.736:8.164:O
22.671:24.042:11.216:C
21.975:22.694:11.250:C
23.298:24.335:12.563:C
